,p [hPa],tc [C],td [C],hgt [m],u [m/s],v [m/s],wspd [m/s],wdir [deg]
0,984.34717,31.26944,16.409443,230.00912,1.3781664,-5.477885,5.6485896,345.8782
1,980.78595,30.666687,16.314245,262.478,1.7167515,-6.602117,6.82167,345.42416
2,977.1625,30.266846,16.234903,295.9934,1.8620592,-7.0622516,7.303606,345.22934
3,973.3415,29.898346,16.157072,330.60776,1.9557359,-7.3236494,7.5802865,345.0484
4,969.44977,29.53305,16.079863,366.36533,2.0184453,-7.50257,7.7693424,344.94205
5,965.4018,29.157623,16.000725,403.3093,2.0724661,-7.6329055,7.909258,344.80942
6,961.3088,28.78009,15.920843,441.482,2.1178153,-7.7296076,8.014485,344.6777
7,957.08936,28.39212,15.838502,480.92883,2.1566615,-7.8087435,8.10109,344.5606
8,952.67163,27.986511,15.752181,521.6997,2.1904802,-7.873344,8.172378,344.45264
9,948.15283,27.571533,15.663141,563.8439,2.2215543,-7.921343,8.226967,344.33377
10,943.50037,27.144012,15.570469,607.4127,2.2528348,-7.964333,8.276827,344.20563
11,938.73474,26.705475,15.474102,652.4618,2.2799654,-7.9995503,8.318115,344.09183
12,933.7639,26.247437,15.372049,699.0482,2.3126411,-8.031469,8.3578,343.93637
13,928.674,25.777618,15.26519,747.2316,2.3430374,-8.056602,8.39039,343.7844
14,923.42896,25.292847,15.152242,797.0735,2.3758483,-8.078537,8.420654,343.61172
15,918.02765,24.792877,15.032263,848.6403,2.411755,-8.103521,8.454799,343.42603
16,912.4336,24.274597,14.903392,902.00214,2.4503663,-8.122972,8.484513,343.2136
17,906.72046,23.745422,14.765445,957.22974,2.4947054,-8.145731,8.519183,342.97232
18,900.7644,23.194183,14.614276,1014.39984,2.5489511,-8.17206,8.560357,342.67676
19,894.71814,22.636627,14.449138,1073.5934,2.6133657,-8.203702,8.609901,342.33023
20,888.41943,22.059387,14.2623825,1134.8936,2.6929889,-8.248707,8.677175,341.9195
21,881.9716,21.475311,14.048718,1198.39,2.7910063,-8.306805,8.763145,341.42816
22,875.3052,20.884186,13.793398,1264.1777,2.9212537,-8.389215,8.88328,340.8011
23,868.43524,20.300415,13.470717,1332.3567,3.109907,-8.512212,9.06252,339.9304
24,861.34,19.749512,13.027066,1403.0352,3.4075608,-8.710548,9.353349,338.63458
25,854.0619,19.293274,12.28507,1476.3297,3.9461226,-9.071587,9.892703,336.49106
26,846.5491,18.805756,11.163664,1552.3461,4.4224224,-9.186042,10.195155,334.2925
27,838.8113,18.450684,9.627471,1631.2012,4.585027,-8.318247,9.498195,331.13638
28,830.84,18.284729,7.93456,1713.0646,4.62806,-7.501927,8.814638,328.3289
29,822.6268,17.689362,7.2715344,1798.0925,4.6074834,-7.000786,8.380925,326.64957
30,814.14966,17.03955,6.7461667,1886.4246,4.6097794,-6.50699,7.9743958,324.6849
31,805.4236,16.290985,6.5307226,1978.2264,4.6507998,-6.0191984,7.6066213,322.30814
32,796.4603,15.471069,6.4601207,2073.67,4.717135,-5.5805693,7.307128,319.79288
33,787.15,14.569092,6.4960003,2172.9404,4.811849,-5.233299,7.109241,317.40247
34,777.59125,13.626068,6.4972944,2276.2314,5.035617,-5.0197678,7.1102395,314.9097
35,767.7117,12.646088,6.41549,2383.7502,5.412421,-4.9302206,7.321296,312.33066
36,757.55023,11.6875,6.175575,2495.7253,5.717905,-4.8786135,7.516336,310.47137
37,747.0428,10.756226,5.7587776,2612.4133,5.684459,-4.7536783,7.4101644,309.90436
38,736.2135,9.781616,4.9194446,2734.0652,5.4424887,-4.319882,6.9485297,308.4402
39,725.0475,8.863434,3.3226895,2860.9314,5.4563346,-3.457837,6.4597387,302.36362
40,713.53265,7.836212,1.9538817,2993.3096,5.805394,-2.381322,6.2748146,292.303
41,701.64795,6.6223145,1.2732738,3131.5398,6.2062106,-1.4346567,6.3698735,283.0161
42,689.39984,5.331543,0.5698108,3275.9802,6.5732465,-0.68881315,6.6092386,275.9822
43,676.74744,4.0421143,-0.5591949,3427.0164,6.3444366,-0.6072397,6.3734307,275.46725
44,663.7061,2.938202,-2.7176929,3585.1035,5.53264,-0.8747749,5.601369,278.98474
45,650.24066,2.2862244,-6.049482,3750.8662,5.0953436,-1.7308675,5.381304,288.76242
46,636.3609,1.801239,-9.236264,3925.0754,5.157451,-3.2069619,6.073212,301.8738
47,622.0211,0.8390808,-10.778656,4108.3955,5.55926,-4.551805,7.185005,309.3099
48,607.22205,-0.47799683,-11.772162,4301.3774,6.3961673,-5.2276692,8.260719,309.25958
49,591.9315,-1.9491577,-12.876995,4504.6714,7.486149,-5.2914248,9.16742,305.25375
50,576.1288,-3.4945984,-14.24765,4719.0884,8.407084,-5.0241904,9.793955,300.86313
51,559.80115,-5.124939,-15.793927,4945.5664,8.878011,-4.612594,10.004754,297.45425
52,542.9332,-6.782715,-17.57802,5185.1973,8.876251,-4.278036,9.853396,295.7324
53,525.488,-8.424927,-19.736664,5439.281,8.402762,-4.245975,9.414601,296.8078
54,507.45163,-10.176422,-21.912983,5709.28,7.715814,-4.626048,8.996339,300.94498
55,488.7942,-12.142242,-23.817253,5996.7847,7.175987,-5.1054373,8.806831,305.4304
56,469.4933,-14.245636,-25.967892,6303.6274,6.5603485,-5.7336783,8.71282,311.15314
57,449.51465,-16.743225,-27.967592,6631.836,4.872292,-7.7139306,9.123813,327.72256
58,428.82867,-19.663666,-29.050104,6983.637,4.226912,-9.451803,10.353906,335.9055
59,407.40866,-22.76358,-30.626978,7361.8306,3.812003,-10.51628,11.185863,340.07513
60,385.22394,-25.276047,-34.59016,7770.575,4.587089,-10.275705,11.253066,335.94394
61,362.24277,-27.169266,-40.88504,8215.612,7.9790425,-9.017431,12.04073,318.4961
62,338.5209,-29.144867,-53.36644,8701.913,12.670954,-7.815232,14.887274,301.6656
63,314.17923,-32.23889,-58.055065,9232.132,16.545815,-8.21429,18.472643,296.40244
64,289.54556,-35.237823,-59.815163,9805.025,21.817854,-8.094068,23.270855,290.35403
65,265.87305,-38.640793,-63.76407,10394.69,26.442188,-5.45819,26.999651,281.66318
66,244.08496,-42.344467,-66.95707,10976.92,30.688498,-1.3409268,30.71778,272.50192
67,224.05324,-46.44565,-69.38697,11550.269,34.818604,2.7255678,34.925117,265.52408
68,205.6617,-50.21443,-72.12582,12113.924,39.68783,4.9969177,40.001163,262.8239
69,188.78067,-53.70479,-74.6945,12668.462,41.511066,4.0354104,41.706753,264.44757
70,173.28593,-57.15097,-77.3799,13214.29,41.05011,2.3309293,41.116234,266.7501
71,159.06317,-60.61679,-80.44786,13751.4375,40.59967,3.0003264,40.71038,265.7735
72,146.0082,-63.741196,-80.44786,14280.307,38.46684,3.536478,38.629063,264.74722
73,134.02402,-66.31958,-80.44786,14802.013,33.770027,2.4022887,33.855366,265.93103
74,123.0229,-68.47719,-80.44786,15317.767,28.571852,0.31693143,28.57361,269.36447
75,112.92261,-70.40135,-80.44786,15828.398,24.370058,-1.9226193,24.44578,274.51086
76,103.65035,-71.43518,-80.44786,16335.327,21.163654,-3.7487876,21.493107,280.0448
77,95.14838,-71.7724,-80.44786,16840.516,17.077965,-4.632468,17.695103,285.1765
78,87.34346,-72.0381,-80.44786,17344.91,13.168935,-5.0646386,14.109267,291.03622
79,80.168884,-72.15814,-80.44786,17848.809,10.841114,-3.714764,11.459896,288.91428
80,73.580345,-71.46776,-80.44786,18353.455,8.558309,-2.9732351,9.060064,289.15768
81,67.53877,-70.09642,-80.44786,18860.709,6.4675093,-1.8389872,6.7238793,285.8727
82,61.998257,-68.000916,-80.44786,19372.29,2.8832386,-2.406404,3.7555087,309.849
83,56.910416,-66.2646,-80.44786,19888.643,0.4264684,-3.7524781,3.7766345,353.51617
84,52.237926,-64.60359,-80.44786,20409.242,-1.1536124,-4.105714,4.2647047,15.694158
