,p [hPa],tc [C],td [C],hgt [m],u [m/s],v [m/s],wspd [m/s],wdir [deg]
0,984.6169,31.386017,16.52073,227.57832,1.5490736,-4.721175,4.9688153,341.83472
1,981.0118,30.80246,16.425486,260.0662,1.8583966,-5.731819,6.0255613,342.03604
2,977.3872,30.394562,16.347803,293.60315,1.9753582,-6.154791,6.464015,342.20615
3,973.6085,30.018646,16.272436,328.23868,2.0487897,-6.4192934,6.738313,342.29892
4,969.71484,29.645294,16.197016,364.01654,2.0962985,-6.6088142,6.9333177,342.40112
5,965.7028,29.266113,16.120302,400.9806,2.1311522,-6.7680264,7.0956316,342.52155
6,961.5718,28.87851,16.041584,439.17374,2.1611047,-6.896913,7.227571,342.60193
7,957.3137,28.480438,15.960258,478.64203,2.1823106,-7.0099263,7.3417673,342.70773
8,952.92773,28.070831,15.8758335,519.4341,2.2025533,-7.117867,7.450857,342.80585
9,948.4428,27.652405,15.789028,561.59924,2.2199183,-7.2073607,7.541491,342.8808
10,943.75415,27.215302,15.697813,605.1893,2.231052,-7.291589,7.6252775,342.98715
11,938.9559,26.767456,15.603394,650.2601,2.2452374,-7.3694344,7.7038727,343.05566
12,934.0133,26.305481,15.504826,696.8684,2.2564466,-7.4429684,7.7774887,343.13455
13,928.9224,25.828766,15.401589,745.0734,2.2666965,-7.5075283,7.8422503,343.1997
14,923.67456,25.336212,15.292996,794.9371,2.2774847,-7.5743036,7.909299,343.2647
15,918.29443,24.829987,15.178781,846.52576,2.2904074,-7.637911,7.9739356,343.3074
16,912.72296,24.304657,15.057062,899.909,2.3039126,-7.7017684,8.038983,343.34595
17,906.93536,23.757782,14.9262295,955.1579,2.3207545,-7.7648654,8.10426,343.3597
18,901.0454,23.200195,14.7866335,1012.34906,2.3425767,-7.8307667,8.173651,343.34543
19,894.9494,22.62265,14.634257,1071.562,2.3701162,-7.902079,8.249867,343.30414
20,888.6691,22.028107,14.4662,1132.8807,2.4087527,-7.9788065,8.334474,343.20126
21,882.1956,21.417267,14.277302,1196.3945,2.4620602,-8.06626,8.4336405,343.02628
22,875.527,20.79306,14.059361,1262.1968,2.5378044,-8.169199,8.554313,342.7423
23,868.65125,20.160706,13.797779,1330.3853,2.654244,-8.294487,8.708818,342.25528
24,861.5676,19.533447,13.463689,1401.066,2.8354166,-8.454441,8.917239,341.45978
25,854.2683,18.941925,12.991261,1474.3525,3.141481,-8.668103,9.219811,340.07855
26,846.7472,18.467682,12.17875,1550.3677,3.690599,-8.930028,9.662604,337.5457
27,838.9852,18.20877,10.61712,1629.2451,4.3680935,-8.948839,9.95801,333.98215
28,831.0214,17.82965,9.29557,1711.1232,4.5807624,-8.470439,9.629731,331.59573
29,822.8153,17.481537,7.526476,1796.1383,4.7054176,-7.698518,9.022646,328.56628
30,814.3332,16.885803,6.7762885,1884.4482,4.680028,-7.2082124,8.594241,327.00583
31,805.61414,16.218567,6.29901,1976.23,4.643161,-6.706629,8.157071,325.3042
32,796.5915,15.47757,5.989367,2071.6624,4.6689134,-6.165679,7.7339735,322.86545
33,787.32275,14.643707,5.92252,2170.9329,4.7850423,-5.6437206,7.3992033,319.70697
34,777.74054,13.708771,6.1232805,2274.2415,4.9631367,-5.225378,7.2067537,316.4744
35,767.89734,12.689056,6.3300595,2381.793,5.191982,-5.034704,7.232214,314.1189
36,757.6944,11.686371,6.1404037,2493.8027,5.4077396,-5.085628,7.4234266,313.24176
37,747.19226,10.769165,5.566458,2610.5176,5.358515,-4.9957585,7.326069,312.9935
38,736.35913,9.895935,4.3908405,2732.1985,5.193135,-4.3261795,6.7590294,309.79623
39,725.1979,8.993408,2.8391566,2859.1094,5.4019594,-3.167784,6.2622695,300.38794
40,713.67224,7.896759,1.8505547,2991.5454,5.7914424,-2.0332358,6.1379843,289.34494
41,701.7825,6.6595764,1.2164092,3129.8364,6.0470304,-1.1222302,6.150283,280.51355
42,689.53455,5.34729,0.5916637,3274.3352,6.1959243,-0.54557925,6.219898,275.03217
43,676.87427,4.046936,-0.41770273,3425.4343,5.9150686,-0.5105356,5.9370604,274.93304
44,663.8205,2.9240723,-2.4305382,3583.592,5.3038,-0.9658428,5.3910246,280.32068
45,650.3477,2.163391,-5.6527853,3749.3994,4.853166,-1.9267961,5.221663,291.654
46,636.4553,1.6952515,-9.079524,3923.6196,4.9318047,-3.4325573,6.0087557,304.83807
47,622.11017,0.8197937,-10.719758,4106.9717,5.4746947,-4.808885,7.286814,311.29556
48,607.3052,-0.43585205,-11.83452,4300.0317,6.5031033,-5.4149466,8.462387,309.78317
49,592.0053,-1.8539429,-13.064797,4503.4443,7.744184,-5.325688,9.398688,304.51636
50,576.1985,-3.3572083,-14.540782,4718.016,8.66826,-4.919277,9.9668455,299.5751
51,559.8674,-4.9391785,-16.187794,4944.691,9.059966,-4.439264,10.089106,296.10425
52,542.9842,-6.546631,-18.0988,5184.571,8.874018,-4.1318073,9.788771,294.96704
53,525.5374,-8.202515,-20.18824,5438.9365,8.249216,-4.2533293,9.281184,297.27582
54,507.4915,-10.009094,-22.10628,5709.211,7.48932,-4.8226094,8.90772,302.77878
55,488.8259,-11.959747,-23.939417,5997.0,6.830043,-5.5356703,8.791651,309.02435
56,469.5182,-13.995911,-26.055132,6304.198,6.1193185,-6.378631,8.839287,316.18863
57,449.53058,-16.333038,-27.84896,6632.9395,5.251919,-7.508463,9.1629505,325.0285
58,428.83954,-19.214615,-29.123652,6985.448,4.454481,-8.702305,9.776119,332.89328
59,407.4129,-22.504486,-30.52401,7364.282,4.2538266,-9.358388,10.279809,335.55597
60,385.21933,-25.686691,-34.030457,7773.0073,5.820319,-8.25399,10.099726,324.81033
61,362.23914,-27.644241,-42.278828,8217.355,9.381006,-6.502115,11.414061,304.7264
62,338.51233,-29.401016,-52.866135,8703.041,13.415433,-4.6983843,14.214382,289.3014
63,314.1717,-32.403305,-57.546886,9232.911,16.733227,-5.586122,17.641022,288.46075
64,289.53818,-35.447372,-60.77481,9805.44,21.692354,-6.001438,22.507233,285.46472
65,265.86755,-38.598923,-63.85941,10394.955,26.294363,-4.2054935,26.62855,279.08685
66,244.08113,-42.237396,-67.020004,10977.399,30.31938,-0.940138,30.333952,271.77606
67,224.0521,-46.394287,-69.534294,11550.957,34.485443,2.4509313,34.57243,265.93475
68,205.66148,-50.159042,-72.15823,12114.746,39.114227,4.4975224,39.371952,263.4407
69,188.78146,-53.62599,-74.84746,12669.453,40.868744,3.8405697,41.0488,264.6315
70,173.28703,-57.126022,-77.51935,13215.408,40.39778,2.4898775,40.474438,266.47308
71,159.0645,-60.7119,-80.44786,13752.462,39.519817,2.8621264,39.62332,265.85773
72,146.00958,-63.882797,-80.44786,14281.029,37.19307,3.2992618,37.339115,264.93076
73,134.02576,-66.332794,-80.44786,14802.535,32.50667,1.7954665,32.55622,266.83856
74,123.02455,-68.452866,-80.44786,15318.299,27.414738,-1.1387465,27.438377,272.37857
75,112.92598,-70.46776,-80.44786,15828.866,23.05705,-3.5820944,23.333645,278.83075
76,103.65678,-71.58536,-80.44786,16335.499,19.546822,-4.5158014,20.061672,283.0085
77,95.14833,-72.24333,-80.44786,16839.896,15.366755,-4.2119837,15.933548,285.32816
78,87.33824,-72.69449,-80.44786,17342.89,11.524924,-3.1852906,11.957005,285.4499
79,80.16713,-72.77832,-80.44786,17845.209,8.447208,-1.3408294,8.552961,279.01935
80,73.58385,-71.76514,-80.44786,18348.7,7.6936107,-1.815299,7.904869,283.27606
81,67.543686,-69.3788,-80.44786,18856.45,7.1394563,-2.3673713,7.521721,288.345
82,61.999355,-66.592834,-80.44786,19370.672,2.6340313,-3.2451093,4.179576,320.93402
83,56.90818,-65.4948,-80.44786,19889.758,-1.0123086,-5.819583,5.9069715,9.867787
84,52.23595,-64.44878,-80.44786,20411.535,-2.7875018,-5.230403,5.9268274,28.05503
